35.261
35.161
34.861
34.661
34.361
33.761
33.061
32.261
31.261
30.861
30.261
29.661
29.061
28.561
28.661
29.461
29.961
29.861
29.161
27.561
26.561
25.261
24.061
22.461
20.061
17.261
14.861
13.361
12.361
11.761
10.761
9.861
9.061
8.461
8.161
7.961
7.561
6.761
6.161
5.961
5.961
6.161
6.261
5.961
5.961
5.661
5.961
6.261
5.961
5.161
4.261
3.161
1.661
0.061
-1.839
-3.939
-7.439
-11.339
-15.039
-17.239
-17.439
-15.139
-9.339
0.761
15.961
36.461
61.161
87.661
112.661
131.561
141.561
142.661
136.761
125.661
109.661
89.861
67.661
44.361
22.361
5.061
-4.939
-8.139
-7.139
-4.639
-2.539
-1.839
-2.039
-2.039
-2.239
-2.039
-2.039
-2.239
-2.539
-2.839
-3.039
-2.939
-3.039
-3.639
-3.439
-3.239
-2.739
-2.439
-2.239
-2.339
-2.539
-2.639
-2.539
-2.339
-2.739
-3.339
-4.039
-4.239
-4.439
-4.439
-4.439
-4.739
-4.439
-4.039
-3.539
-3.039
-2.939
-3.039
-3.239
-3.239
-3.239
-3.239
-3.839
-4.339
-4.639
-4.639
-4.339
-4.339
-4.139
-4.439
-4.239
-3.939
-3.539
-3.439
-3.439
-3.939
-4.339
-4.439
-4.539
-4.239
-4.639
-4.939
-5.139
-4.939
-4.739
-4.339
-4.539
-4.839
-5.239
-5.539
-5.439
-5.139
-5.239
-5.739
-6.239
-6.739
-7.039
-7.139
-7.439
-8.239
-8.739
-9.239
-9.339
-9.339
-9.639
-9.939
-9.939
-10.039
-9.839
-9.339
-9.239
-9.439
-9.439
-8.839
-7.839
-6.839
-6.239
-5.739
-4.839
-3.639
-2.339
-0.739
0.461
1.261
2.061
3.061
4.661
6.461
7.761
8.461
9.361
10.261
11.561
12.461
13.261
13.661
13.661
13.861
13.861
14.061
14.261
14.061
13.661
13.561
13.161
13.061
12.961
12.461
12.061
11.861
11.561
11.161
10.561
9.761
9.561
9.361
9.361
9.061
8.861
8.461
8.161
8.161
8.461
8.861
8.661
8.261
7.861
7.961
7.861
7.961
7.461
6.961
6.161
5.661
5.361
4.961
4.361
3.761
3.561
3.461
3.761
3.961
4.161
3.861
4.061
4.361
4.561
4.561
4.261
3.461
2.961
2.761
2.861
2.861
2.161
1.461
1.161
1.261
1.361
1.661
1.461
0.861
0.161
0.061
0.361
0.861
1.061
0.861
0.961
1.061
1.661
2.261
2.761
2.961
3.061
3.361
3.861
4.161
4.061
3.861
3.561
3.661
3.861
4.361
5.061
5.361
5.461
5.961
7.061
8.361
9.361
10.761
12.161
13.661
15.061
16.461
17.661
18.461
19.061
19.561
20.161
20.161
19.961
19.361
18.561
17.961
17.861
18.261
18.561
18.161
16.961
15.761
14.361
12.861
11.061
9.161
7.061
4.961
2.661
1.261
0.461
-0.639
-1.539
-2.139
-2.339
-2.739
-3.139
-3.939
-4.139
-4.539
-4.639
-4.239
-4.239
-4.539
-4.539
-4.139
-3.739
-3.239
-3.639
-4.239
-4.839
-6.039
-7.639
-9.439
-12.139
-15.739
-19.939
-23.439
-24.739
-23.439
-19.439
-12.139
1.061
19.761
43.661
71.361
100.861
129.061
152.461
168.261
174.761
172.861
162.761
145.161
121.761
94.761
66.861
40.261
17.361
-0.239
-11.239
-16.839
-19.039
-18.839
-17.439
-15.839
-14.439
-13.639
-13.539
-13.239
-13.439
-13.839
-14.439
-14.839
-15.139
-15.039
-15.439
-15.639
-15.639
-15.639
-15.539
-15.139
-15.039
-15.239
-15.539
-15.539
-15.239
-15.239
-15.639
-16.439
-16.639
-17.039
-17.039
-17.039
-17.139
-17.539
-17.739
-17.839
-17.639
-17.139
-17.239
-17.239
-16.939
-16.539
-15.939
-15.439
-15.639
-15.739
-15.739
-15.739
-15.139
-14.739
-14.839
-15.239
-15.539
-15.639
-15.239
-14.839
-15.039
-15.539
-16.339
-16.539
-16.539
-16.439
-16.739
-17.339
-17.939
-18.439
-18.639
-18.839
-18.939
-19.639
-20.339
-20.839
-20.939
-21.139
-21.739
-22.639
-23.339
-23.539
-24.039
-24.339
-24.839
-25.639
-26.439
-26.939
-26.939
-26.939
-27.339
-28.139
-28.439
-28.439
-28.239
-27.639
-27.139
-26.839
-26.039
-24.839
-22.839
-20.639
-18.639
-16.939
-14.839
-12.539
-10.139
-7.739
-6.139
-4.839
-3.839
-2.739
-1.539
-0.239
0.161
0.261
0.261
0.561
1.061
1.761
1.761
1.361
1.261
1.061
1.461
1.861
1.761
1.361
1.261
1.061
1.161
1.661
1.461
1.361
1.161
1.261
1.861
2.261
2.261
1.961
1.961
2.061
2.061
2.061
1.961
1.261
0.761
0.461
0.361
0.261
-0.139
-0.939
-1.339
-1.739
-2.039
-1.939
-2.539
-3.139
-3.739
-3.939
-3.839
-3.639
-3.839
-4.039
-4.339
-4.239
-3.939
-3.639
-3.539
-3.939
-4.039
-4.039
-3.739
-3.539
-3.739
-4.539
-5.039
-5.339
-5.339
-5.139
-5.339
-5.639
-5.939
-5.839
-5.339
-4.839
-4.639
-4.639
-4.839
-4.739
-4.439
-4.439
-4.439
-4.939
-5.339
-5.439
-5.139
-4.939
-4.739
-4.739
-4.739
-4.539
-4.239
-3.839
-3.739
-3.839
-4.039
-3.839
-3.339
-2.439
-1.839
-1.039
-0.139
1.061
2.661
4.261
5.761
7.261
8.561
9.661
11.161
12.761
13.661
14.261
14.761
15.161
15.761
15.961
15.961
15.261
14.261
13.261
13.061
13.461
13.861
14.161
13.561
13.061
12.461
12.261
11.661
10.561
8.761
6.661
4.361
2.261
0.461
-1.539
-3.139
-4.339
-5.239
-5.939
-6.439
-7.339
-8.239
-8.939
-9.139
-9.039
-9.439
-10.239
-10.839
-11.239
-11.039
-10.939
-11.139
-11.839
-12.739
-14.139
-15.839
-17.939
-20.739
-24.339
-28.639
-31.739
-32.039
-28.939
-22.539
-11.439
6.061
29.661
57.761
88.061
116.461
137.361
146.461
145.061
136.861
124.361
107.261
85.161
59.561
32.561
7.661
-10.539
-19.439
-21.139
-19.039
-17.039
-15.939
-15.539
-15.539
-15.939
-16.139
-16.339
-16.439
-16.639
-16.839
-17.139
-17.639
-17.839
-18.039
-18.239
-18.539
-19.239
-19.639
-19.539
-19.639
-19.339
-19.539
-20.039
-20.339
-20.239
-20.039
-19.539
-19.639
-19.839
-19.639
-19.439
-18.939
-18.339
-17.839
-17.839
-17.739
-17.339
-16.839
-16.439
-16.739
-17.339
-17.839
-18.139
-18.539
-18.439
-18.839
-19.539
-19.939
-20.239
-19.939
-19.439
-19.139
-19.339
-19.239
-19.139
-18.539
-18.039
-17.639
-17.439
-17.139
-17.139
-16.739
-16.039
-15.839
-16.039
-16.239
-16.339
-16.539
-16.739
-17.439
-17.839
-18.539
-19.039
-19.339
-19.239
-19.839
-20.339
-20.839
-20.939
-20.939
-20.939
-20.839
-21.039
-21.239
-21.339
-20.539
-19.839
-18.939
-18.039
-16.839
-15.239
-13.539
-11.639
-9.839
-8.239
-6.839
-5.339
-3.639
-2.239
-1.339
-0.739
-0.139
0.461
1.161
1.861
2.161
2.361
2.261
2.061
2.361
2.461
2.261
1.861
1.361
1.161
1.261
1.361
1.161
0.961
0.861
0.761
1.161
1.361
1.361
0.961
0.661
0.361
0.361
0.361
-0.539
-1.339
-2.239
-2.739
-2.839
-2.939
-3.339
-4.139
-4.739
-5.239
-5.339
-5.539
-5.839
-6.439
-6.939
-7.239
-7.239
-7.139
-7.139
-7.439
-7.639
-7.439
-7.439
-7.139
-7.439
-8.039
-8.639
-8.739
-9.039
-8.939
-8.939
-9.539
-9.839
-10.139
-9.739
-9.139
-8.739
-8.939
-8.939
-8.639
-8.239
-7.439
-7.139
-7.139
-7.339
-7.439
-7.539
-7.239
-7.439
-8.239
-8.439
-8.839
-8.839
-8.739
-8.739
-9.039
-9.139
-8.939
-8.539
-7.739
-7.539
-7.239
-6.939
-5.939
-4.839
-3.539
-2.539
-1.739
-0.439
0.761
2.161
3.461
4.661
5.361
6.161
7.161
8.461
9.361
9.861
10.061
9.961
10.261
10.461
10.461
10.161
9.761
9.061
8.761
8.761
9.161
9.961
10.061
9.861
9.161
8.561
7.161
5.561
3.461
1.061
-1.439
-4.039
-6.339
-8.439
-10.039
-11.739
-12.539
-13.039
-13.139
-13.339
-13.839
-14.439
-14.439
-14.239
-14.239
-14.239
-14.839
-15.239
-15.539
-15.439
-15.439
-15.939
-17.639
-19.639
-21.939
-24.239
-26.439
-29.139
-33.139
-38.239
-42.739
-45.739
-46.439
-44.639
-39.939
-32.039
-19.739
-1.539
23.161
52.261
82.061
108.961
128.361
137.361
136.661
128.961
116.761
99.861
78.961
54.961
29.961
6.561
-11.139
-20.539
-22.139
-19.939
-17.439
-16.039
-16.039
-16.339
-16.539
-16.339
-16.039
-16.139
-16.739
-17.139
-17.139
-17.139
-17.139
-17.139
-17.239
-17.639
-17.539
-17.039
-16.539
-16.239
-16.339
-16.239
-16.039
-15.839
-15.639
-15.539
-15.839
-16.139
-16.239
-16.039
-15.539
-15.239
-15.139
-15.039
-14.839
-14.239
-13.839
-13.739
-13.739
-13.739
-13.739
-13.539
-13.339
-13.439
-13.539
-13.839
-13.439
-13.039
-12.839
-13.039
-13.139
-13.339
-13.139
-12.839
-12.839
-12.639
-12.839
-12.839
-12.639
-12.239
-12.239
-12.339
-12.639
-12.339
-11.939
-11.839
-12.039
-12.339
-12.639
-12.639
-12.339
-12.239
-12.039
-12.539
-12.639
-12.639
-12.239
-11.839
-11.739
-12.139
-12.539
-12.539
-12.339
-11.839
-11.739
-11.739
-11.439
-10.739
-9.439
-7.839
-6.539
-5.339
-4.239
-2.839
-1.139
0.361
1.461
2.461
3.161
3.861
4.861
5.761
6.261
6.261
6.061
6.261
6.561
6.461
6.261
5.661
5.161
5.061
5.261
5.661
5.661
5.361
4.961
4.861
4.861
5.361
5.261
4.861
4.461
4.061
3.961
3.961
3.661
3.361
2.961
2.761
2.761
2.661
2.061
1.161
0.561
0.261
0.161
0.061
-0.139
-0.939
-1.539
-1.639
-1.439
-1.039
-1.039
-1.539
-1.939
-2.339
-2.439
-2.439
-2.739
-3.439
-3.939
-4.339
-4.439
-4.239
-4.039
-4.039
-4.239
-4.239
-3.739
-3.539
-3.439
-3.639
-4.239
-4.739
-5.039
-5.239
-5.439
-5.739
-6.339
-6.339
-6.339
-6.239
-5.839
-6.239
-6.539
-6.839
-6.739
-6.639
-6.639
-6.939
-7.039
-6.739
-6.439
-5.539
-5.039
-4.639
-4.339
-3.839
-2.639
-1.339
-0.439
0.061
0.961
2.061
3.261
4.461
5.561
6.561
7.061
7.861
9.261
10.461
11.361
11.861
12.261
12.961
13.761
14.061
14.061
13.861
13.361
12.861
12.361
11.861
11.861
11.761
11.561
11.361
11.061
10.261
9.061
7.961
6.561
5.261
3.761
2.061
0.061
-1.839
-3.239
-4.039
-4.439
-4.839
-5.339
-5.739
-6.639
-7.339
-7.739
-7.839
-8.439
-9.139
-9.939
-10.339
-10.539
-10.439
-10.339
-10.539
-10.539
-10.439
-9.839
-9.439
-9.339
-9.739
-10.239
-11.639
-13.139
-15.239
-18.239
-22.339
-26.439
-28.839
-28.539
-25.239
-18.439
-6.139
12.261
36.061
62.761
89.661
111.461
123.861
126.961
122.961
114.061
100.761
82.261
59.961
35.561
12.161
-6.339
-17.239
-21.339
-21.439
-19.939
-18.439
-17.339
-17.239
-17.339
-17.839
-18.139
-17.839
-17.539
-16.939
-16.339
-16.139
-16.139
-15.739
-15.439
-14.939
-14.839
-15.639
-16.039
-16.139
-16.139
-16.239
-16.439
-17.239
-17.739
-18.039
-18.139
-17.739
-17.739
-18.039
-18.239
-18.639
-18.639
-18.339
-18.239
-18.539
-18.739
-18.739
-18.439
-18.039
-17.839
-17.439
-17.239
-16.939
-16.839
-16.539
-16.639
-17.239
-17.639
-17.839
-17.839
-17.639
-18.039
-18.239
-18.239
-18.139
-17.639
-16.839
-16.639
-16.939
-17.339
-17.539
-17.139
-17.039
-17.039
-17.539
-18.139
-18.739
-19.039
-19.139
-19.839
-20.739
-21.839
-22.539
-23.339
-24.239
-24.839
-25.539
-25.939
-26.139
-25.639
-25.339
-25.239
-25.539
-25.539
-24.739
-24.039
-23.039
-22.739
-22.439
-22.039
-21.039
-19.539
-17.839
-16.239
-14.939
-13.439
-11.839
-9.639
-7.339
-5.339
-4.139
-2.939
-1.839
-0.639
0.461
1.061
1.261
1.261
1.261
1.261
1.761
1.761
1.561
1.461
1.361
1.761
2.161
2.361
2.461
2.861
3.161
3.561
4.061
4.161
3.961
3.761
3.761
3.861
3.561
2.761
1.661
0.961
0.561
0.261
0.061
-0.439
-1.239
-1.739
-1.939
-1.839
-1.439
-1.639
-2.039
-2.539
-2.539
-2.439
-2.239
-2.039
-2.239
-2.439
-2.739
-2.639
-2.539
-2.339
-2.439
-2.539
-2.339
-2.339
-2.139
-2.239
-2.739
-3.039
-3.239
-3.239
-2.839
-2.739
-3.339
-3.639
-3.439
-3.039
-2.539
-2.239
-2.139
-2.139
-2.339
-2.439
-2.039
-2.239
-2.739
-3.239
-3.139
-3.039
-2.839
-3.039
-3.439
-3.639
-3.639
-3.239
-2.639
-1.939
-1.539
-0.539
0.561
2.361
4.161
5.661
7.061
8.461
9.961
11.361
13.061
13.861
14.561
15.261
15.861
16.661
17.161
17.261
16.861
16.761
16.561
16.661
16.361
15.661
15.261
15.161
15.761
16.761
17.661
17.861
17.061
16.261
15.561
14.961
13.761
11.761
9.061
6.161
3.461
1.061
-0.539
-1.939
-3.339
-4.539
-5.139
-5.339
-5.439
-5.739
-6.239
-6.339
-6.739
-6.839
-6.539
-6.839
-7.639
-8.039
-8.039
-7.939
-7.539
-7.539
-7.739
-8.639
-9.739
-11.039
-12.539
-14.839
-18.139
-22.039
-25.839
-28.639
-29.139
-27.239
-22.539
-13.239
2.161
23.561
49.761
78.361
105.061
125.361
136.061
137.661
132.361
121.561
105.461
84.561
60.561
35.061
11.261
-7.039
-17.639
-21.139
-20.239
-17.939
-15.839
-14.839
-15.039
-15.439
-15.339
-15.239
-15.339
-15.639
-16.339
-16.839
-17.039
-16.939
-16.739
-16.839
-17.339
-17.839
-17.739
-17.439
-16.939
-16.939
-17.339
-17.539
-17.439
-17.039
-16.639
-16.439
-16.639
-17.039
-17.239
-16.839
-16.439
-16.539
-17.139
-17.539
-17.739
-17.839
-17.739
-17.839
-18.339
-19.039
-19.339
-19.039
-18.339
-18.039
-18.139
-18.139
-18.039
-17.539
-17.239
-17.139
-17.339
-17.739
-18.239
-18.339
-18.539
-18.639
-19.139
-19.539
-19.339
-19.039
-18.639
-18.339
-18.239
-18.139
-17.639
-17.239
-16.839
-16.839
-17.339
-17.739
-17.939
-18.139
-18.339
-18.939
-19.939
-20.839
-21.439
-21.839
-21.939
-22.439
-23.139
-23.839
-24.139
-24.239
-24.239
-24.239
-24.539
-24.539
-24.539
-23.839
-22.939
-22.039
-21.039
-19.639
-17.439
-15.239
-12.739
-10.739
-8.739
-6.639
-4.539
-2.239
-0.339
1.161
1.661
2.361
3.161
4.161
4.761
5.161
5.161
5.061
5.261
5.561
6.261
6.361
6.261
6.161
6.761
7.161
7.661
7.961
7.761
7.561
7.561
7.861
7.861
7.661
6.961
6.461
5.961
5.761
5.761
5.461
4.861
4.161
4.061
3.961
3.961
3.661
3.061
2.261
1.761
1.561
1.361
1.261
0.661
0.261
0.161
-0.039
0.161
0.061
-0.239
-0.439
-0.339
-0.239
0.061
-0.139
-0.639
-0.839
-0.939
-0.839
-0.739
-0.939
-1.439
-1.839
-2.139
-2.039
-1.739
-1.639
-1.839
-1.839
-1.639
-1.139
-0.939
-0.639
-0.839
-0.939
-0.739
-0.639
-0.639
-0.739
-1.139
-1.639
-1.739
-1.839
-1.539
-1.539
-1.939
-2.039
-1.739
-1.439
-1.039
-1.039
-1.039
-1.039
-0.939
-0.439
0.061
0.661
0.661
0.961
1.761
3.261
4.761
5.961
6.961
7.961
9.361
10.661
12.461
14.061
15.161
15.961
17.061
18.161
19.361
19.961
19.961
19.761
19.661
19.761
19.361
18.861
17.861
17.261
17.161
17.661
17.961
17.661
16.761
15.361
14.161
12.861
11.461
9.561
7.261
4.861
2.661
1.161
-0.039
-1.139
-2.039
-2.739
-3.039
-2.839
-2.839
-3.139
-3.439
-3.739
-3.939
-3.839
-3.739
-3.839
-4.239
-4.639
-4.939
-5.039
-4.939
-4.939
-5.139
-5.739
-6.339
-7.539
-9.339
-12.139
-15.239
-18.839
-22.739
-25.939
-27.139
-25.439
-20.739
-11.339
3.561
24.761
50.861
80.161
109.261
134.861
152.061
158.061
154.861
144.661
129.261
109.161
85.361
59.261
33.661
10.761
-5.739
-13.739
-15.339
-13.839
-11.739
-10.639
-10.739
-11.239
-11.539
-11.539
-11.339
-11.439
-11.839
-12.139
-12.539
-12.939
-12.939
-13.139
-13.839
-14.439
-14.939
-14.839
-14.839
-15.039
-15.339
-15.539
-15.739
-15.639
-15.239
-15.139
-15.339
-15.539
-15.339
-14.939
-14.439
-14.039
-13.939
-13.839
-13.439
-12.939
-12.239
-11.939
-11.939
-11.839
-12.139
-12.039
-11.639
-11.539
-11.939
-12.339
-12.639
-12.639
-12.439
-12.739
-12.839
-13.139
-13.439
-13.339
-13.139
-13.039
-13.139
-13.239
-13.339
-13.039
-12.539
-12.039
-12.139
-11.939
-11.639
-11.139
-10.839
-10.839
-11.239
-11.639
-11.739
-11.939
-11.539
-11.939
-12.439
-13.039
-13.339
-13.539
-13.039
-12.939
-13.339
-13.439
-13.439
-13.239
-12.939
-12.939
-13.239
-12.939
-12.839
-12.339
-11.939
-12.039
-12.239
-12.139
-11.839
-10.939
-9.739
-8.839
-8.039
-7.139
-5.839
-4.039
-2.139
-0.439
0.861
2.161
3.661
4.661
5.661
6.361
6.761
6.861
6.961
7.161
7.461
7.361
6.961
6.761
6.761
6.761
6.861
6.861
6.461
6.061
5.961
6.061
6.161
6.261
5.961
5.861
5.961
6.261
6.661
6.761
6.261
5.761
5.761
6.061
6.561
6.761
6.661
6.461
6.661
7.161
8.061
8.861
8.961
9.061
9.561
10.361
11.361
12.061
12.461
12.861
13.861
14.761
15.461
15.661
15.961
16.561
17.061
17.661
18.061
18.161
17.661
17.161
17.061
16.761
15.661
13.461
11.261
9.261
7.661
5.861
14.561
13.561
9.561
6.561
0.561
-0.439
-0.439
1.561
-2.439
-4.439
