0.000
-0.002
0.200
0.198
0.195
0.191
0.186
0.180
0.178
0.175
0.171
0.168
0.165
0.165
0.170
0.173
0.172
0.168
0.159
0.153
0.146
0.139
0.130
0.116
0.100
0.087
0.078
0.072
0.069
0.063
0.058
0.053
0.050
0.048
0.047
0.045
0.040
0.037
0.036
0.036
0.037
0.037
0.036
0.036
0.034
0.036
0.037
0.036
0.031
0.026
0.020
0.011
0.002
-0.009
-0.021
-0.041
-0.063
-0.084
-0.097
-0.098
-0.085
-0.052
0.006
0.093
0.210
0.351
0.503
0.645
0.753
0.811
0.817
0.783
0.720
0.628
0.515
0.388
0.255
0.129
0.031
-0.027
-0.045
-0.039
-0.025
-0.013
-0.009
-0.010
-0.010
-0.011
-0.010
-0.010
-0.011
-0.013
-0.015
-0.016
-0.015
-0.016
-0.019
-0.018
-0.017
-0.014
-0.012
-0.011
-0.012
-0.013
-0.013
-0.013
-0.012
-0.014
-0.017
-0.021
-0.023
-0.024
-0.024
-0.024
-0.025
-0.024
-0.021
-0.019
-0.016
-0.015
-0.016
-0.017
-0.017
-0.017
-0.017
-0.020
-0.023
-0.025
-0.025
-0.023
-0.023
-0.022
-0.024
-0.023
-0.021
-0.019
-0.018
-0.018
-0.021
-0.023
-0.024
-0.024
-0.023
-0.025
-0.027
-0.028
-0.027
-0.025
-0.023
-0.024
-0.026
-0.028
-0.030
-0.029
-0.028
-0.028
-0.031
-0.034
-0.037
-0.039
-0.039
-0.041
-0.045
-0.048
-0.051
-0.052
-0.052
-0.053
-0.055
-0.055
-0.056
-0.055
-0.052
-0.051
-0.052
-0.052
-0.049
-0.043
-0.037
-0.034
-0.031
-0.026
-0.019
-0.012
-0.003
0.004
0.009
0.013
0.019
0.028
0.039
0.046
0.050
0.055
0.060
0.068
0.073
0.077
0.080
0.080
0.081
0.081
0.082
0.083
0.082
0.080
0.079
0.077
0.076
0.076
0.073
0.071
0.069
0.068
0.065
0.062
0.057
0.056
0.055
0.055
0.053
0.052
0.050
0.048
0.048
0.050
0.052
0.051
0.049
0.047
0.047
0.047
0.047
0.044
0.041
0.037
0.034
0.032
0.030
0.027
0.023
0.022
0.021
0.023
0.024
0.025
0.024
0.025
0.027
0.028
0.028
0.026
0.021
0.019
0.017
0.018
0.018
0.014
0.010
0.008
0.009
0.009
0.011
0.010
0.007
0.003
0.002
0.004
0.007
0.008
0.007
0.007
0.008
0.011
0.015
0.017
0.019
0.019
0.021
0.024
0.025
0.025
0.024
0.022
0.023
0.024
0.027
0.031
0.032
0.033
0.036
0.042
0.049
0.055
0.063
0.071
0.080
0.088
0.096
0.103
0.107
0.111
0.113
0.117
0.117
0.116
0.112
0.108
0.104
0.104
0.106
0.108
0.105
0.099
0.092
0.084
0.075
0.065
0.054
0.042
0.030
0.017
0.009
0.004
-0.002
-0.007
-0.011
-0.012
-0.014
-0.016
-0.021
-0.022
-0.024
-0.025
-0.023
-0.023
-0.024
-0.024
-0.022
-0.020
-0.017
-0.019
-0.023
-0.026
-0.033
-0.042
-0.052
-0.068
-0.088
-0.112
-0.132
-0.140
-0.132
-0.109
-0.068
0.008
0.115
0.251
0.409
0.578
0.739
0.873
0.963
1.000
0.989
0.932
0.831
0.697
0.543
0.384
0.232
0.101
0.000
-0.063
-0.095
-0.107
-0.106
-0.098
-0.089
-0.081
-0.076
-0.076
-0.074
-0.075
-0.077
-0.081
-0.083
-0.085
-0.084
-0.087
-0.088
-0.088
-0.088
-0.087
-0.085
-0.084
-0.085
-0.087
-0.087
-0.085
-0.085
-0.088
-0.092
-0.093
-0.096
-0.096
-0.096
-0.096
-0.099
-0.100
-0.100
-0.099
-0.096
-0.097
-0.097
-0.095
-0.093
-0.089
-0.087
-0.088
-0.088
-0.088
-0.088
-0.085
-0.083
-0.083
-0.085
-0.087
-0.088
-0.085
-0.083
-0.084
-0.087
-0.092
-0.093
-0.093
-0.092
-0.094
-0.097
-0.101
-0.104
-0.105
-0.106
-0.107
-0.111
-0.115
-0.117
-0.118
-0.119
-0.123
-0.128
-0.132
-0.133
-0.136
-0.137
-0.140
-0.145
-0.149
-0.152
-0.152
-0.152
-0.155
-0.159
-0.161
-0.161
-0.160
-0.156
-0.153
-0.152
-0.147
-0.140
-0.129
-0.116
-0.105
-0.095
-0.083
-0.070
-0.056
-0.043
-0.033
-0.026
-0.020
-0.014
-0.007
0.000
0.003
0.003
0.003
0.005
0.008
0.012
0.012
0.009
0.009
0.008
0.010
0.012
0.012
0.009
0.009
0.008
0.008
0.011
0.010
0.009
0.008
0.009
0.012
0.015
0.015
0.013
0.013
0.013
0.013
0.013
0.013
0.009
0.006
0.004
0.004
0.003
0.001
-0.004
-0.006
-0.008
-0.010
-0.009
-0.013
-0.016
-0.020
-0.021
-0.020
-0.019
-0.020
-0.021
-0.023
-0.023
-0.021
-0.019
-0.019
-0.021
-0.021
-0.021
-0.020
-0.019
-0.020
-0.024
-0.027
-0.029
-0.029
-0.028
-0.029
-0.031
-0.032
-0.032
-0.029
-0.026
-0.025
-0.025
-0.026
-0.025
-0.024
-0.024
-0.024
-0.027
-0.029
-0.029
-0.028
-0.027
-0.025
-0.025
-0.025
-0.024
-0.023
-0.020
-0.020
-0.020
-0.021
-0.020
-0.017
-0.012
-0.009
-0.004
0.001
0.008
0.017
0.026
0.035
0.043
0.051
0.057
0.065
0.075
0.080
0.083
0.086
0.088
0.092
0.093
0.093
0.089
0.083
0.077
0.076
0.079
0.081
0.083
0.079
0.076
0.073
0.072
0.068
0.062
0.052
0.040
0.027
0.015
0.004
-0.007
-0.016
-0.023
-0.028
-0.032
-0.035
-0.040
-0.045
-0.049
-0.051
-0.050
-0.052
-0.057
-0.060
-0.063
-0.061
-0.061
-0.062
-0.066
-0.071
-0.079
-0.089
-0.101
-0.117
-0.137
-0.162
-0.180
-0.181
-0.164
-0.127
-0.064
0.036
0.171
0.332
0.505
0.667
0.787
0.839
0.831
0.784
0.712
0.615
0.488
0.342
0.188
0.045
-0.059
-0.109
-0.119
-0.107
-0.096
-0.089
-0.087
-0.087
-0.089
-0.091
-0.092
-0.092
-0.093
-0.095
-0.096
-0.099
-0.100
-0.101
-0.103
-0.104
-0.108
-0.111
-0.110
-0.111
-0.109
-0.110
-0.113
-0.115
-0.114
-0.113
-0.110
-0.111
-0.112
-0.111
-0.109
-0.107
-0.103
-0.100
-0.100
-0.100
-0.097
-0.095
-0.092
-0.094
-0.097
-0.100
-0.102
-0.104
-0.104
-0.106
-0.110
-0.112
-0.114
-0.112
-0.109
-0.108
-0.109
-0.108
-0.108
-0.104
-0.101
-0.099
-0.098
-0.096
-0.096
-0.094
-0.090
-0.089
-0.090
-0.091
-0.092
-0.093
-0.094
-0.098
-0.100
-0.104
-0.107
-0.109
-0.108
-0.112
-0.115
-0.117
-0.118
-0.118
-0.118
-0.117
-0.119
-0.120
-0.120
-0.116
-0.112
-0.107
-0.101
-0.095
-0.085
-0.076
-0.065
-0.055
-0.045
-0.037
-0.029
-0.019
-0.011
-0.006
-0.003
0.001
0.004
0.008
0.012
0.014
0.015
0.015
0.013
0.015
0.016
0.015
0.012
0.009
0.008
0.009
0.009
0.008
0.007
0.007
0.006
0.008
0.009
0.009
0.007
0.005
0.004
0.004
0.004
-0.001
-0.006
-0.011
-0.014
-0.015
-0.015
-0.017
-0.022
-0.025
-0.028
-0.029
-0.030
-0.032
-0.035
-0.038
-0.040
-0.040
-0.039
-0.039
-0.041
-0.042
-0.041
-0.041
-0.039
-0.041
-0.044
-0.048
-0.048
-0.050
-0.049
-0.049
-0.053
-0.055
-0.056
-0.054
-0.051
-0.048
-0.049
-0.049
-0.048
-0.045
-0.041
-0.039
-0.039
-0.040
-0.041
-0.041
-0.040
-0.041
-0.045
-0.047
-0.049
-0.049
-0.048
-0.048
-0.050
-0.051
-0.049
-0.047
-0.043
-0.041
-0.040
-0.038
-0.032
-0.026
-0.019
-0.013
-0.008
-0.001
0.006
0.014
0.021
0.028
0.032
0.037
0.043
0.050
0.055
0.058
0.059
0.059
0.060
0.061
0.061
0.060
0.057
0.053
0.052
0.052
0.054
0.059
0.059
0.058
0.054
0.051
0.043
0.033
0.021
0.008
-0.007
-0.021
-0.035
-0.047
-0.056
-0.065
-0.070
-0.073
-0.073
-0.075
-0.077
-0.081
-0.081
-0.080
-0.080
-0.080
-0.083
-0.085
-0.087
-0.087
-0.087
-0.089
-0.099
-0.111
-0.124
-0.137
-0.149
-0.165
-0.188
-0.217
-0.243
-0.260
-0.264
-0.253
-0.227
-0.181
-0.111
-0.007
0.134
0.300
0.471
0.624
0.735
0.787
0.783
0.739
0.669
0.572
0.453
0.316
0.173
0.039
-0.062
-0.116
-0.125
-0.112
-0.098
-0.090
-0.090
-0.092
-0.093
-0.092
-0.090
-0.091
-0.094
-0.096
-0.096
-0.096
-0.096
-0.096
-0.097
-0.099
-0.099
-0.096
-0.093
-0.091
-0.092
-0.091
-0.090
-0.089
-0.088
-0.087
-0.089
-0.091
-0.091
-0.090
-0.087
-0.085
-0.085
-0.084
-0.083
-0.080
-0.077
-0.077
-0.077
-0.077
-0.077
-0.076
-0.075
-0.075
-0.076
-0.077
-0.075
-0.073
-0.072
-0.073
-0.073
-0.075
-0.073
-0.072
-0.072
-0.071
-0.072
-0.072
-0.071
-0.068
-0.068
-0.069
-0.071
-0.069
-0.067
-0.066
-0.067
-0.069
-0.071
-0.071
-0.069
-0.068
-0.067
-0.070
-0.071
-0.071
-0.068
-0.066
-0.065
-0.068
-0.070
-0.070
-0.069
-0.066
-0.065
-0.065
-0.064
-0.060
-0.052
-0.043
-0.036
-0.029
-0.023
-0.015
-0.005
0.004
0.010
0.016
0.020
0.024
0.029
0.035
0.037
0.037
0.036
0.037
0.039
0.039
0.037
0.034
0.031
0.031
0.032
0.034
0.034
0.032
0.030
0.029
0.029
0.032
0.032
0.029
0.027
0.025
0.024
0.024
0.023
0.021
0.019
0.017
0.017
0.017
0.013
0.008
0.005
0.003
0.003
0.002
0.001
-0.004
-0.007
-0.008
-0.007
-0.004
-0.004
-0.007
-0.009
-0.012
-0.012
-0.012
-0.014
-0.018
-0.021
-0.023
-0.024
-0.023
-0.021
-0.021
-0.023
-0.023
-0.020
-0.019
-0.018
-0.019
-0.023
-0.025
-0.027
-0.028
-0.029
-0.031
-0.035
-0.035
-0.035
-0.034
-0.032
-0.034
-0.036
-0.037
-0.037
-0.036
-0.036
-0.038
-0.039
-0.037
-0.035
-0.030
-0.027
-0.025
-0.023
-0.020
-0.013
-0.006
-0.001
0.002
0.007
0.013
0.020
0.027
0.033
0.039
0.042
0.047
0.055
0.061
0.067
0.069
0.072
0.076
0.080
0.082
0.082
0.081
0.078
0.075
0.072
0.069
0.069
0.069
0.068
0.067
0.065
0.060
0.053
0.047
0.039
0.032
0.023
0.013
0.002
-0.009
-0.017
-0.021
-0.024
-0.026
-0.029
-0.031
-0.036
-0.040
-0.043
-0.043
-0.047
-0.051
-0.055
-0.057
-0.059
-0.058
-0.057
-0.059
-0.059
-0.058
-0.055
-0.052
-0.052
-0.054
-0.057
-0.065
-0.073
-0.085
-0.103
-0.126
-0.149
-0.163
-0.161
-0.143
-0.104
-0.033
0.072
0.208
0.360
0.514
0.639
0.709
0.727
0.704
0.653
0.577
0.472
0.344
0.205
0.071
-0.035
-0.097
-0.120
-0.121
-0.112
-0.104
-0.097
-0.097
-0.097
-0.100
-0.102
-0.100
-0.099
-0.095
-0.092
-0.091
-0.091
-0.088
-0.087
-0.084
-0.083
-0.088
-0.090
-0.091
-0.091
-0.091
-0.092
-0.097
-0.100
-0.101
-0.102
-0.100
-0.100
-0.101
-0.103
-0.105
-0.105
-0.103
-0.103
-0.104
-0.105
-0.105
-0.104
-0.101
-0.100
-0.098
-0.097
-0.095
-0.095
-0.093
-0.093
-0.097
-0.099
-0.100
-0.100
-0.099
-0.101
-0.103
-0.103
-0.102
-0.099
-0.095
-0.093
-0.095
-0.097
-0.099
-0.096
-0.096
-0.096
-0.099
-0.102
-0.105
-0.107
-0.108
-0.112
-0.117
-0.123
-0.127
-0.132
-0.137
-0.140
-0.144
-0.147
-0.148
-0.145
-0.143
-0.143
-0.144
-0.144
-0.140
-0.136
-0.130
-0.128
-0.127
-0.124
-0.119
-0.110
-0.100
-0.091
-0.084
-0.075
-0.066
-0.053
-0.040
-0.029
-0.022
-0.015
-0.009
-0.002
0.004
0.008
0.009
0.009
0.009
0.009
0.012
0.012
0.011
0.010
0.009
0.012
0.014
0.015
0.016
0.018
0.020
0.022
0.025
0.025
0.024
0.023
0.023
0.024
0.022
0.017
0.011
0.007
0.005
0.003
0.002
-0.001
-0.005
-0.008
-0.009
-0.009
-0.007
-0.008
-0.010
-0.013
-0.013
-0.012
-0.011
-0.010
-0.011
-0.012
-0.014
-0.013
-0.013
-0.012
-0.012
-0.013
-0.012
-0.012
-0.011
-0.011
-0.014
-0.016
-0.017
-0.017
-0.015
-0.014
-0.017
-0.019
-0.018
-0.016
-0.013
-0.011
-0.011
-0.011
-0.012
-0.012
-0.010
-0.011
-0.014
-0.017
-0.016
-0.016
-0.015
-0.016
-0.018
-0.019
-0.019
-0.017
-0.013
-0.009
-0.007
-0.001
0.005
0.015
0.025
0.034
0.042
0.050
0.059
0.067
0.076
0.081
0.085
0.089
0.092
0.097
0.100
0.100
0.098
0.097
0.096
0.097
0.095
0.091
0.089
0.088
0.092
0.097
0.103
0.104
0.099
0.095
0.091
0.087
0.080
0.069
0.053
0.037
0.021
0.008
-0.001
-0.009
-0.017
-0.024
-0.028
-0.029
-0.029
-0.031
-0.034
-0.035
-0.037
-0.037
-0.036
-0.037
-0.042
-0.044
-0.044
-0.044
-0.041
-0.041
-0.043
-0.048
-0.054
-0.061
-0.070
-0.083
-0.102
-0.124
-0.146
-0.162
-0.165
-0.154
-0.127
-0.074
0.014
0.136
0.286
0.449
0.602
0.718
0.779
0.788
0.758
0.696
0.604
0.485
0.348
0.202
0.066
-0.039
-0.099
-0.119
-0.114
-0.101
-0.089
-0.083
-0.084
-0.087
-0.086
-0.085
-0.086
-0.088
-0.092
-0.095
-0.096
-0.095
-0.094
-0.095
-0.097
-0.100
-0.100
-0.098
-0.095
-0.095
-0.097
-0.099
-0.098
-0.096
-0.093
-0.092
-0.093
-0.096
-0.097
-0.095
-0.092
-0.093
-0.096
-0.099
-0.100
-0.100
-0.100
-0.100
-0.103
-0.107
-0.109
-0.107
-0.103
-0.101
-0.102
-0.102
-0.101
-0.099
-0.097
-0.096
-0.097
-0.100
-0.103
-0.103
-0.104
-0.105
-0.108
-0.110
-0.109
-0.107
-0.105
-0.103
-0.103
-0.102
-0.099
-0.097
-0.095
-0.095
-0.097
-0.100
-0.101
-0.102
-0.103
-0.107
-0.112
-0.117
-0.121
-0.123
-0.124
-0.127
-0.131
-0.135
-0.136
-0.137
-0.137
-0.137
-0.139
-0.139
-0.139
-0.135
-0.129
-0.124
-0.119
-0.111
-0.098
-0.085
-0.071
-0.060
-0.048
-0.036
-0.024
-0.011
-0.000
0.008
0.011
0.015
0.020
0.025
0.029
0.031
0.031
0.031
0.032
0.033
0.037
0.038
0.037
0.037
0.040
0.043
0.045
0.047
0.046
0.045
0.045
0.047
0.047
0.045
0.041
0.039
0.036
0.035
0.035
0.033
0.029
0.025
0.025
0.024
0.024
0.023
0.019
0.015
0.012
0.011
0.009
0.009
0.005
0.003
0.003
0.001
0.003
0.002
0.000
-0.001
-0.000
0.000
0.002
0.001
-0.002
-0.003
-0.004
-0.003
-0.003
-0.004
-0.007
-0.009
-0.011
-0.010
-0.008
-0.008
-0.009
-0.009
-0.008
-0.005
-0.004
-0.002
-0.003
-0.004
-0.003
-0.002
-0.002
-0.003
-0.005
-0.008
-0.008
-0.009
-0.007
-0.007
-0.009
-0.010
-0.008
-0.007
-0.004
-0.004
-0.004
-0.004
-0.004
-0.001
0.002
0.005
0.005
0.007
0.012
0.020
0.029
0.036
0.041
0.047
0.055
0.063
0.073
0.082
0.088
0.093
0.099
0.105
0.112
0.116
0.116
0.115
0.114
0.115
0.112
0.109
0.104
0.100
0.100
0.103
0.104
0.103
0.097
0.089
0.083
0.075
0.067
0.056
0.043
0.029
0.017
0.008
0.001
-0.005
-0.010
-0.014
-0.016
-0.015
-0.015
-0.016
-0.018
-0.020
-0.021
-0.020
-0.020
-0.020
-0.023
-0.025
-0.027
-0.027
-0.027
-0.027
-0.028
-0.031
-0.035
-0.041
-0.052
-0.068
-0.085
-0.106
-0.128
-0.147
-0.153
-0.144
-0.117
-0.063
0.022
0.143
0.292
0.460
0.626
0.772
0.871
0.905
0.887
0.828
0.740
0.625
0.489
0.340
0.194
0.063
-0.031
-0.077
-0.086
-0.077
-0.065
-0.059
-0.060
-0.063
-0.064
-0.064
-0.063
-0.064
-0.066
-0.068
-0.070
-0.072
-0.072
-0.073
-0.077
-0.081
-0.084
-0.083
-0.083
-0.084
-0.086
-0.087
-0.088
-0.088
-0.085
-0.085
-0.086
-0.087
-0.086
-0.084
-0.081
-0.079
-0.078
-0.077
-0.075
-0.072
-0.068
-0.067
-0.067
-0.066
-0.068
-0.067
-0.065
-0.064
-0.067
-0.069
-0.071
-0.071
-0.069
-0.071
-0.072
-0.073
-0.075
-0.075
-0.073
-0.073
-0.073
-0.074
-0.075
-0.073
-0.070
-0.067
-0.068
-0.067
-0.065
-0.062
-0.060
-0.060
-0.063
-0.065
-0.065
-0.067
-0.064
-0.067
-0.069
-0.073
-0.075
-0.076
-0.073
-0.072
-0.075
-0.075
-0.075
-0.074
-0.072
-0.072
-0.074
-0.072
-0.072
-0.069
-0.067
-0.067
-0.068
-0.068
-0.066
-0.061
-0.054
-0.049
-0.044
-0.039
-0.032
-0.021
-0.011
-0.001
0.007
0.014
0.023
0.028
0.034
0.038
0.040
0.041
0.041
0.043
0.044
0.044
0.041
0.040
0.040
0.040
0.041
0.041
0.039
0.036
0.036
0.036
0.037
0.037
0.036
0.035
0.036
0.037
0.040
0.040
0.037
0.035
0.035
0.036
0.039
0.040
0.040
0.039
0.040
0.043
0.048
0.052
0.053
0.053
0.056
0.061
0.067
0.071
0.073
0.075
0.081
0.086
0.090
0.091
0.093
0.096
0.099
0.103
0.105
0.105
0.103
0.100
0.099
0.097
0.091
0.079
0.066
0.055
0.045
0.035
0.085
0.079
0.056
0.039
0.005
-0.001
-0.001
0.011
-0.012
-0.024
0.002
